 # log_10[m](msun/h) log_10[dn](h**3/Mpc**3/dlog10m)  log_10[n>M](h**3/Mpc**3) ln[1/sigma(m,z)] f(per unit ln(1/sigma)  sigma(m,z) n_eff(approx)
   17.000000      -33.706584      -35.706584       2.0437833      0.27014912E-27  0.12953770     -0.72332851    
   16.990000      -33.214287      -35.093093       2.0350552      0.82183701E-27  0.13067327     -0.72797114    
   16.980000      -32.731382      -34.574591       2.0263450      0.24467629E-26  0.13181643     -0.73267635    
   16.970000      -32.257678      -34.086817       2.0176529      0.71319730E-26  0.13296719     -0.73742344    
   16.960000      -31.792980      -33.614477       2.0089790      0.20362143E-25  0.13412554     -0.74219754    
   16.950000      -31.337109      -33.152987       2.0003236      0.56965923E-25  0.13529150     -0.74699081    
   16.940000      -30.889887      -32.700781       1.9916866      0.15623074E-24  0.13646507     -0.75180452    
   16.930000      -30.451132      -32.257229       1.9830681      0.42020113E-24  0.13764628     -0.75662786    
   16.920000      -30.020659      -31.822002       1.9744681      0.11088263E-23  0.13883514     -0.76144719    
   16.910000      -29.598297      -31.394872       1.9658865      0.28718197E-23  0.14003169     -0.76625760    
   16.900000      -29.183881      -30.975658       1.9573235      0.73031218E-23  0.14123594     -0.77106285    
   16.890000      -28.777242      -30.564186       1.9487788      0.18242546E-22  0.14244792     -0.77586212    
   16.880000      -28.378212      -30.160289       1.9402525      0.44776704E-22  0.14366766     -0.78064327    
   16.870000      -27.986626      -29.763804       1.9317446      0.10803583E-21  0.14489520     -0.78540378    
   16.860000      -27.602335      -29.374578       1.9232549      0.25632387E-21  0.14613055     -0.79014717    
   16.850000      -27.225186      -28.992460       1.9147834      0.59823248E-21  0.14737376     -0.79487933    
   16.840000      -26.855026      -28.617299       1.9063299      0.13739201E-20  0.14862485     -0.79959134    
   16.830000      -26.491703      -28.248946       1.8978945      0.31060581E-20  0.14988386     -0.80428046    
   16.820000      -26.135079      -27.887261       1.8894771      0.69144365E-20  0.15115082     -0.80894894    
   16.810000      -25.785016      -27.532107       1.8810776      0.15161552E-19  0.15242576     -0.81360537    
   16.800000      -25.441377      -27.183347       1.8726959      0.32757264E-19  0.15370871     -0.81824567    
   16.790000      -25.104022      -26.840846       1.8643320      0.69756098E-19  0.15499972     -0.82286499    
   16.780000      -24.772824      -26.504475       1.8559858      0.14645252E-18  0.15629879     -0.82746438    
   16.770000      -24.447660      -26.174109       1.8476572      0.30323497E-18  0.15760598     -0.83205181    
   16.760000      -24.128404      -25.849625       1.8393462      0.61937628E-18  0.15892130     -0.83662837    
   16.750000      -23.814931      -25.530902       1.8310527      0.12483738E-17  0.16024480     -0.84118669    
   16.740000      -23.507120      -25.217818       1.8227766      0.24835192E-17  0.16157649     -0.84572685    
   16.730000      -23.204861      -24.910261       1.8145180      0.48779714E-17  0.16291642     -0.85025405    
   16.720000      -22.908042      -24.608120       1.8062767      0.94618017E-17  0.16426460     -0.85477332    
   16.710000      -22.616547      -24.311283       1.7980528      0.18129373E-16  0.16562108     -0.85927707    
   16.700000      -22.330265      -24.019641       1.7898460      0.34322119E-16  0.16698588     -0.86376396    
   16.690000      -22.049096      -23.733088       1.7816565      0.64217492E-16  0.16835903     -0.86823670    
   16.680000      -21.772935      -23.451525       1.7734842      0.11877488E-15  0.16974055     -0.87270246    
   16.670000      -21.501683      -23.174850       1.7653289      0.21721497E-15  0.17113049     -0.87715649    
   16.660000      -21.235233      -22.902963       1.7571907      0.39286900E-15  0.17252887     -0.88159538    
   16.650000      -20.973492      -22.635767       1.7490695      0.70290210E-15  0.17393571     -0.88602027    
   16.640000      -20.716370      -22.373171       1.7409653      0.12443024E-14  0.17535105     -0.89043833    
   16.630000      -20.463773      -22.115084       1.7328780      0.21798872E-14  0.17677491     -0.89484914    
   16.620000      -20.215605      -21.861413       1.7248077      0.37801570E-14  0.17820732     -0.89924699    
   16.610000      -19.971779      -21.612069       1.7167541      0.64899492E-14  0.17964832     -0.90363232    
   16.600000      -19.732213      -21.366970       1.7087175      0.11033541E-13  0.18109791     -0.90801048    
   16.590000      -19.496823      -21.126031       1.7006975      0.18578715E-13  0.18255614     -0.91238502    
   16.580000      -19.265522      -20.889170       1.6926944      0.30990366E-13  0.18402302     -0.91674940    
   16.570000      -19.038227      -20.656305       1.6847080      0.51218702E-13  0.18549859     -0.92110306    
   16.560000      -18.814864      -20.427358       1.6767383      0.83888070E-13  0.18698287     -0.92544895    
   16.550000      -18.595355      -20.202254       1.6687852      0.13618189E-12  0.18847588     -0.92979280    
   16.540000      -18.379625      -19.980916       1.6608488      0.21916049E-12  0.18997765     -0.93412944    
   16.530000      -18.167594      -19.763271       1.6529291      0.34970588E-12  0.19148821     -0.93845632    
   16.520000      -17.959193      -19.549246       1.6450259      0.55336745E-12  0.19300757     -0.94277444    
   16.510000      -17.754353      -19.338772       1.6371393      0.86849148E-12  0.19453576     -0.94708972    
   16.500000      -17.553004      -19.131780       1.6292692      0.13521620E-11  0.19607281     -0.95140011    
   16.490000      -17.355074      -18.928201       1.6214157      0.20886770E-11  0.19761874     -0.95570076    
   16.480000      -17.160497      -18.727969       1.6135786      0.32015446E-11  0.19917357     -0.95999161    
   16.470000      -16.969210      -18.531020       1.6057580      0.48703361E-11  0.20073733     -0.96427726    
   16.460000      -16.781151      -18.337292       1.5979539      0.73541695E-11  0.20231004     -0.96855918    
   16.450000      -16.596254      -18.146720       1.5901661      0.11024186E-10  0.20389174     -0.97283117    
   16.440000      -16.414454      -17.959244       1.5823948      0.16408117E-10  0.20548243     -0.97709249    
   16.430000      -16.235696      -17.774805       1.5746397      0.24251029E-10  0.20708214     -0.98134577    
   16.420000      -16.059922      -17.593344       1.5669010      0.35597536E-10  0.20869091     -0.98559506    
   16.410000      -15.887073      -17.414805       1.5591786      0.51902222E-10  0.21030875     -0.98983499    
   16.400000      -15.717087      -17.239131       1.5514724      0.75176926E-10  0.21193569     -0.99406368    
   16.390000      -15.549915      -17.066267       1.5437825      0.10818594E-09  0.21357175     -0.99828230    
   16.380000      -15.385502      -16.896159       1.5361087      0.15470310E-09  0.21521695      -1.0024960    
   16.370000      -15.223795      -16.728757       1.5284511      0.21984797E-09  0.21687133      -1.0067022    
   16.360000      -15.064739      -16.564007       1.5208095      0.31052254E-09  0.21853490      -1.0108974    
   16.350000      -14.908284      -16.401858       1.5131841      0.43597502E-09  0.22020770      -1.0150820    
   16.340000      -14.754383      -16.242263       1.5055747      0.60852406E-09  0.22188973      -1.0192606    
   16.330000      -14.602987      -16.085172       1.4979814      0.84448237E-09  0.22358103      -1.0234340    
   16.320000      -14.454046      -15.930539       1.4904040      0.11653277E-08  0.22528162      -1.0275972    
   16.310000      -14.307511      -15.778316       1.4828426      0.15991779E-08  0.22699152      -1.0317500    
   16.300000      -14.163341      -15.628459       1.4752971      0.21826422E-08  0.22871076      -1.0358955    
   16.290000      -14.021490      -15.480923       1.4677676      0.29631286E-08  0.23043935      -1.0400369    
   16.280000      -13.881914      -15.335664       1.4602538      0.40017037E-08  0.23217733      -1.0441691    
   16.270000      -13.744565      -15.192640       1.4527560      0.53766144E-08  0.23392471      -1.0482911    
   16.260000      -13.609405      -15.051808       1.4452739      0.71876111E-08  0.23568151      -1.0524043    
   16.250000      -13.476393      -14.913127       1.4378076      0.95612264E-08  0.23744776      -1.0565131    
   16.240000      -13.345489      -14.776559       1.4303571      0.12657178E-07  0.23922348      -1.0606142    
   16.230000      -13.216648      -14.642062       1.4229223      0.16676093E-07  0.24100869      -1.0647052    
   16.220000      -13.089833      -14.509598       1.4155031      0.21868792E-07  0.24280342      -1.0687864    
   16.210000      -12.965009      -14.379129       1.4080997      0.28547417E-07  0.24460768      -1.0728622    
   16.200000      -12.842137      -14.250618       1.4007118      0.37098653E-07  0.24642149      -1.0769321    
   16.190000      -12.721177      -14.124030       1.3933396      0.47999396E-07  0.24824489      -1.0809921    
   16.180000      -12.602093      -13.999326       1.3859829      0.61835199E-07  0.25007789      -1.0850423    
   16.170000      -12.484853      -13.876474       1.3786417      0.79321990E-07  0.25192050      -1.0890857    
   16.160000      -12.369422      -13.755438       1.3713161      0.10133145E-06  0.25377276      -1.0931245    
   16.150000      -12.255764      -13.636185       1.3640059      0.12892053E-06  0.25563468      -1.0971542    
   16.140000      -12.143843      -13.518682       1.3567112      0.16336557E-06  0.25750628      -1.1011744    
   16.130000      -12.033629      -13.402895       1.3494319      0.20620179E-06  0.25938759      -1.1051865    
   16.120000      -11.925091      -13.288794       1.3421679      0.25926875E-06  0.26127862      -1.1091943    
   16.110000      -11.818197      -13.176348       1.3349194      0.32476234E-06  0.26317939      -1.1131945    
   16.100000      -11.712912      -13.065525       1.3276862      0.40529384E-06  0.26508993      -1.1171852    
   16.090000      -11.609207      -12.956294       1.3204682      0.50395717E-06  0.26701025      -1.1211671    
   16.080000      -11.507054      -12.848628       1.3132656      0.62440532E-06  0.26894037      -1.1251439    
   16.070000      -11.406424      -12.742497       1.3060782      0.77093629E-06  0.27088032      -1.1291145    
   16.060000      -11.307285      -12.637872       1.2989060      0.94858943E-06  0.27283011      -1.1330756    
   16.050000      -11.209608      -12.534725       1.2917490      0.11632532E-05  0.27478976      -1.1370273    
   16.040000      -11.113368      -12.433030       1.2846071      0.14217861E-05  0.27675929      -1.1409724    
   16.030000      -11.018539      -12.332759       1.2774804      0.17321510E-05  0.27873872      -1.1449122    
   16.020000      -10.925091      -12.233886       1.2703688      0.21035639E-05  0.28072807      -1.1488425    
   16.010000      -10.832995      -12.136384       1.2632722      0.25466567E-05  0.28272736      -1.1527628    
   16.000000      -10.742231      -12.040229       1.2561907      0.30736588E-05  0.28473660      -1.1566749    
   15.990000      -10.652771      -11.945395       1.2491242      0.36985960E-05  0.28675582      -1.1605816    
   15.980000      -10.564591      -11.851859       1.2420727      0.44375080E-05  0.28878504      -1.1644793    
   15.970000      -10.477664      -11.759595       1.2350361      0.53086831E-05  0.29082428      -1.1683667    
   15.960000      -10.391967      -11.668580       1.2280143      0.63329155E-05  0.29287355      -1.1722447    
   15.950000      -10.307478      -11.578792       1.2210075      0.75337867E-05  0.29493287      -1.1761165    
   15.940000      -10.224175      -11.490208       1.2140155      0.89379671E-05  0.29700226      -1.1799806    
   15.930000      -10.142032      -11.402805       1.2070383      0.10575539E-04  0.29908175      -1.1838346    
   15.920000      -10.061027      -11.316561       1.2000759      0.12480345E-04  0.30117135      -1.1876786    
   15.910000      -9.9811412      -11.231456       1.1931283      0.14690360E-04  0.30327107      -1.1915158    
   15.900000      -9.9023542      -11.147468       1.1861953      0.17248100E-04  0.30538094      -1.1953466    
   15.890000      -9.8246428      -11.064577       1.1792770      0.20201040E-04  0.30750098      -1.1991679    
   15.880000      -9.7479856      -10.982764       1.1723734      0.23602057E-04  0.30963120      -1.2029794    
   15.870000      -9.6723662      -10.902007       1.1654844      0.27509917E-04  0.31177161      -1.2067833    
   15.860000      -9.5977657      -10.822289       1.1586099      0.31989778E-04  0.31392225      -1.2105818    
   15.850000      -9.5241643      -10.743591       1.1517501      0.37113718E-04  0.31608312      -1.2143718    
   15.840000      -9.4515411      -10.665893       1.1449047      0.42961279E-04  0.31825424      -1.2181525    
   15.830000      -9.3798812      -10.589179       1.1380739      0.49620041E-04  0.32043563      -1.2219249    
   15.820000      -9.3091680      -10.513431       1.1312575      0.57186239E-04  0.32262730      -1.2256922    
   15.810000      -9.2393847      -10.438632       1.1244556      0.65765381E-04  0.32482927      -1.2294524    
   15.800000      -9.1705119      -10.364766       1.1176680      0.75472877E-04  0.32704156      -1.2332038    
   15.790000      -9.1025350      -10.291815       1.1108949      0.86434680E-04  0.32926418      -1.2369468    
   15.780000      -9.0354405      -10.219765       1.1041361      0.98787988E-04  0.33149714      -1.2406844    
   15.770000      -8.9692136      -10.148600       1.0973916      0.11268192E-03  0.33374047      -1.2444165    
   15.760000      -8.9038374      -10.078305       1.0906615      0.12827822E-03  0.33599417      -1.2481406    
   15.750000      -8.8392972      -10.008865       1.0839456      0.14575189E-03  0.33825826      -1.2518566    
   15.740000      -8.7755824      -9.9402660       1.0772440      0.16529190E-03  0.34053275      -1.2555668    
   15.730000      -8.7126799      -9.8724949       1.0705566      0.18710197E-03  0.34281766      -1.2592729    
   15.720000      -8.6505755      -9.8055380       1.0638834      0.21140114E-03  0.34511300      -1.2629719    
   15.710000      -8.5892550      -9.7393820       1.0572244      0.23842446E-03  0.34741878      -1.2666635    
   15.700000      -8.5287093      -9.6740143       1.0505795      0.26842357E-03  0.34973501      -1.2703489    
   15.690000      -8.4689271      -9.6094228       1.0439488      0.30166742E-03  0.35206170      -1.2740306    
   15.680000      -8.4098971      -9.5455956       1.0373322      0.33844282E-03  0.35439888      -1.2777065    
   15.670000      -8.3516059      -9.4825209       1.0307297      0.37905488E-03  0.35674654      -1.2813753    
   15.660000      -8.2940446      -9.4201875       1.0241413      0.42382750E-03  0.35910470      -1.2850372    
   15.650000      -8.2372046      -9.3585845       1.0175669      0.47310382E-03  0.36147337      -1.2886950    
   15.640000      -8.1810761      -9.2977015       1.0110065      0.52724668E-03  0.36385256      -1.2923479    
   15.630000      -8.1256474      -9.2375282       1.0044602      0.58663876E-03  0.36624229      -1.2959934    
   15.620000      -8.0709092      -9.1780542      0.99792779      0.65168272E-03  0.36864256      -1.2996314    
   15.610000      -8.0168551      -9.1192701      0.99140936      0.72280140E-03  0.37105337      -1.3032639    
   15.600000      -7.9634766      -9.0611666      0.98490486      0.80043792E-03  0.37347476      -1.3068916    
   15.590000      -7.9107639      -9.0037345      0.97841426      0.88505559E-03  0.37590672      -1.3105115    
   15.580000      -7.8587071      -8.9469647      0.97193754      0.97713742E-03  0.37834926      -1.3141232    
   15.570000      -7.8073014      -8.8908486      0.96547467      0.10771860E-02  0.38080240      -1.3177277    
   15.560000      -7.7565392      -8.8353779      0.95902563      0.11857232E-02  0.38326615      -1.3213267    
   15.550000      -7.7064125      -8.7805446      0.95259037      0.13032897E-02  0.38574052      -1.3249177    
   15.540000      -7.6569117      -8.7263404      0.94616888      0.14304437E-02  0.38822552      -1.3284996    
   15.530000      -7.6080316      -8.6727575      0.93976112      0.15677606E-02  0.39072116      -1.3320727    
   15.520000      -7.5597663      -8.6197885      0.93336707      0.17158320E-02  0.39322746      -1.3356392    
   15.510000      -7.5121090      -8.5674261      0.92698668      0.18752647E-02  0.39574442      -1.3391978    
   15.500000      -7.4650506      -8.5156629      0.92061992      0.20466794E-02  0.39827207      -1.3427466    
   15.490000      -7.4185850      -8.4644917      0.91426677      0.22307091E-02  0.40081040      -1.3462854    
   15.480000      -7.3727079      -8.4139058      0.90792719      0.24279979E-02  0.40335944      -1.3498163    
   15.470000      -7.3274129      -8.3638984      0.90160114      0.26391994E-02  0.40591920      -1.3533395    
   15.460000      -7.2826921      -8.3144630      0.89528859      0.28649756E-02  0.40848970      -1.3568526    
   15.450000      -7.2385382      -8.2655927      0.88898950      0.31059938E-02  0.41107093      -1.3603552    
   15.440000      -7.1949477      -8.2172813      0.88270385      0.33629254E-02  0.41366292      -1.3638486    
   15.430000      -7.1519147      -8.1695226      0.87643158      0.36364441E-02  0.41626568      -1.3673345    
   15.420000      -7.1094323      -8.1223103      0.87017266      0.39272242E-02  0.41887922      -1.3708104    
   15.410000      -7.0674924      -8.0756383      0.86392707      0.42359376E-02  0.42150355      -1.3742758    
   15.400000      -7.0260913      -8.0295003      0.85769476      0.45632514E-02  0.42413870      -1.3777313    
   15.390000      -6.9852237      -7.9838907      0.85147570      0.49098268E-02  0.42678466      -1.3811791    
   15.380000      -6.9448833      -7.9388035      0.84526984      0.52763169E-02  0.42944146      -1.3846179    
   15.370000      -6.9050623      -7.8942328      0.83907716      0.56633635E-02  0.43210911      -1.3880465    
   15.360000      -6.8657552      -7.8501727      0.83289763      0.60715951E-02  0.43478761      -1.3914650    
   15.350000      -6.8269579      -7.8066175      0.82673120      0.65016249E-02  0.43747698      -1.3948756    
   15.340000      -6.7886645      -7.7635617      0.82057784      0.69540492E-02  0.44017723      -1.3982786    
   15.330000      -6.7508671      -7.7209996      0.81443752      0.74294453E-02  0.44288837      -1.4016718    
   15.320000      -6.7135592      -7.6789252      0.80831020      0.79283681E-02  0.44561042      -1.4050556    
   15.310000      -6.6767371      -7.6373331      0.80219586      0.84513489E-02  0.44834338      -1.4084314    
   15.300000      -6.6403947      -7.5962179      0.79609447      0.89988947E-02  0.45108726      -1.4118007    
   15.290000      -6.6045251      -7.5555739      0.79000597      0.95714862E-02  0.45384208      -1.4151614    
   15.280000      -6.5691204      -7.5153954      0.78393036      0.10169575E-01  0.45660784      -1.4185134    
   15.270000      -6.5341767      -7.4756769      0.77786761      0.10793582E-01  0.45938456      -1.4218576    
   15.260000      -6.4996882      -7.4364130      0.77181768      0.11443899E-01  0.46217222      -1.4251961    
