 # log_10[m](msun/h) log_10[dn](h**3/Mpc**3/dlog10m)  log_10[n>M](h**3/Mpc**3) ln[1/sigma(m,z)] f(per unit ln(1/sigma)  sigma(m,z) n_eff(approx)
   17.000000      -31.618017      -33.618017       2.0437833      0.33126060E-25  0.12953770     -0.72332851    
   16.990000      -31.161952      -33.031653       2.0350552      0.92708873E-25  0.13067327     -0.72797114    
   16.980000      -30.714587      -32.543775       2.0263450      0.25432399E-24  0.13181643     -0.73267635    
   16.970000      -30.275746      -32.088374       2.0176529      0.68413409E-24  0.13296719     -0.73742344    
   16.960000      -29.845250      -31.648986       2.0089790      0.18053171E-23  0.13412554     -0.74219754    
   16.950000      -29.422932      -31.220384       2.0003236      0.46751153E-23  0.13529150     -0.74699081    
   16.940000      -29.008628      -30.800696       1.9916866      0.11885734E-22  0.13646507     -0.75180452    
   16.930000      -28.602168      -30.389155       1.9830681      0.29677052E-22  0.13764628     -0.75662786    
   16.920000      -28.203384      -29.985381       1.9744681      0.72801345E-22  0.13883514     -0.76144719    
   16.910000      -27.812114      -29.589133       1.9658865      0.17552577E-21  0.14003169     -0.76625760    
   16.900000      -27.428207      -29.200228       1.9573235      0.41608581E-21  0.14123594     -0.77106285    
   16.890000      -27.051507      -28.818503       1.9487788      0.97010936E-21  0.14244792     -0.77586212    
   16.880000      -26.681858      -28.443798       1.9402525      0.22253900E-20  0.14366766     -0.78064327    
   16.870000      -26.319107      -28.075963       1.9317446      0.50244266E-20  0.14489520     -0.78540378    
   16.860000      -25.963118      -27.714855       1.9232549      0.11168805E-19  0.14613055     -0.79014717    
   16.850000      -25.613747      -27.360335       1.9147834      0.24451721E-19  0.14737376     -0.79487933    
   16.840000      -25.270853      -27.012264       1.9063299      0.52739274E-19  0.14862485     -0.79959134    
   16.830000      -24.934296      -26.670503       1.8978945      0.11210268E-18  0.14988386     -0.80428046    
   16.820000      -24.603949      -26.334922       1.8894771      0.23490206E-18  0.15115082     -0.80894894    
   16.810000      -24.279683      -26.005395       1.8810776      0.48537429E-18  0.15242576     -0.81360537    
   16.800000      -23.961372      -25.681796       1.8726959      0.98926567E-18  0.15370871     -0.81824567    
   16.790000      -23.648886      -25.363999       1.8643320      0.19893849E-17  0.15499972     -0.82286499    
   16.780000      -23.342107      -25.051885       1.8559858      0.39483374E-17  0.15629879     -0.82746438    
   16.770000      -23.040921      -24.745339       1.8476572      0.77360173E-17  0.15760598     -0.83205181    
   16.760000      -22.745214      -24.444247       1.8393462      0.14967322E-16  0.15892130     -0.83662837    
   16.750000      -22.454868      -24.148495       1.8310527      0.28602696E-16  0.16024480     -0.84118669    
   16.740000      -22.169772      -23.857973       1.8227766      0.54002680E-16  0.16157649     -0.84572685    
   16.730000      -21.889824      -23.572577       1.8145180      0.10075730E-15  0.16291642     -0.85025405    
   16.720000      -21.614920      -23.292202       1.8062767      0.18582156E-15  0.16426460     -0.85477332    
   16.710000      -21.344953      -23.016747       1.7980528      0.33882636E-15  0.16562108     -0.85927707    
   16.700000      -21.079820      -22.746110       1.7898460      0.61096971E-15  0.16698588     -0.86376396    
   16.690000      -20.819428      -22.480193       1.7816565      0.10897361E-14  0.16835903     -0.86823670    
   16.680000      -20.563682      -22.218904       1.7734842      0.19229964E-14  0.16974055     -0.87270246    
   16.670000      -20.312487      -21.962150       1.7653289      0.33580361E-14  0.17113049     -0.87715649    
   16.660000      -20.065747      -21.709837       1.7571907      0.58040816E-14  0.17252887     -0.88159538    
   16.650000      -19.823375      -21.461876       1.7490695      0.99314351E-14  0.17393571     -0.88602027    
   16.640000      -19.585287      -21.218183       1.7409653      0.16827080E-13  0.17535105     -0.89043833    
   16.630000      -19.351397      -20.978672       1.7328780      0.28236433E-13  0.17677491     -0.89484914    
   16.620000      -19.121616      -20.743259       1.7248077      0.46935248E-13  0.17820732     -0.89924699    
   16.610000      -18.895863      -20.511862       1.7167541      0.77296173E-13  0.17964832     -0.90363232    
   16.600000      -18.674062      -20.284403       1.7087175      0.12614400E-12  0.18109791     -0.90801048    
   16.590000      -18.456135      -20.060806       1.7006975      0.20403450E-12  0.18255614     -0.91238502    
   16.580000      -18.242003      -19.840992       1.6926944      0.32714923E-12  0.18402302     -0.91674940    
   16.570000      -18.031587      -19.624887       1.6847080      0.52007748E-12  0.18549859     -0.92110306    
   16.560000      -17.824821      -19.412419       1.6767383      0.81986651E-12  0.18698287     -0.92544895    
   16.550000      -17.621631      -19.203517       1.6687852      0.12818678E-11  0.18847588     -0.92979280    
   16.540000      -17.421948      -18.998112       1.6608488      0.19881027E-11  0.18997765     -0.93412944    
   16.530000      -17.225698      -18.796135       1.6529291      0.30591332E-11  0.19148821     -0.93845632    
   16.520000      -17.032817      -18.597518       1.6450259      0.46707739E-11  0.19300757     -0.94277444    
   16.510000      -16.843242      -18.402198       1.6371393      0.70774404E-11  0.19453576     -0.94708972    
   16.500000      -16.656907      -18.210112       1.6292692      0.10644499E-10  0.19607281     -0.95140011    
   16.490000      -16.473746      -18.021194       1.6214157      0.15892748E-10  0.19761874     -0.95570076    
   16.480000      -16.293697      -17.835384       1.6135786      0.23559110E-10  0.19917357     -0.95999161    
   16.470000      -16.116704      -17.652623       1.6057580      0.34678912E-10  0.20073733     -0.96427726    
   16.460000      -15.942707      -17.472852       1.5979539      0.50696532E-10  0.20231004     -0.96855918    
   16.450000      -15.771645      -17.296014       1.5901661      0.73613146E-10  0.20389174     -0.97283117    
   16.440000      -15.603459      -17.122050       1.5823948      0.10618261E-09  0.20548243     -0.97709249    
   16.430000      -15.438098      -16.950908       1.5746397      0.15216957E-09  0.20708214     -0.98134577    
   16.420000      -15.275508      -16.782532       1.5669010      0.21668727E-09  0.20869091     -0.98559506    
   16.410000      -15.115635      -16.616871       1.5591786      0.30663640E-09  0.21030875     -0.98983499    
   16.400000      -14.958421      -16.453871       1.5514724      0.43127160E-09  0.21193569     -0.99406368    
   16.390000      -14.803820      -16.293481       1.5437825      0.60292850E-09  0.21357175     -0.99828230    
   16.380000      -14.651782      -16.135654       1.5361087      0.83795151E-09  0.21521695      -1.0024960    
   16.370000      -14.502258      -15.980340       1.5284511      0.11578688E-08  0.21687133      -1.0067022    
   16.360000      -14.355197      -15.827490       1.5208095      0.15908721E-08  0.21853490      -1.0108974    
   16.350000      -14.210552      -15.677059       1.5131841      0.21736690E-08  0.22020770      -1.0150820    
   16.340000      -14.068281      -15.529001       1.5055747      0.29537922E-08  0.22188973      -1.0192606    
   16.330000      -13.928338      -15.383272       1.4979814      0.39924562E-08  0.22358103      -1.0234340    
   16.320000      -13.790676      -15.239827       1.4904040      0.53680720E-08  0.22528162      -1.0275972    
   16.310000      -13.655251      -15.098623       1.4828426      0.71805467E-08  0.22699152      -1.0317500    
   16.300000      -13.522023      -14.959618       1.4752971      0.95565257E-08  0.22871076      -1.0358955    
   16.290000      -13.390953      -14.822772       1.4677676      0.12655741E-07  0.23043935      -1.0400369    
   16.280000      -13.261998      -14.688045       1.4602538      0.16678651E-07  0.23217733      -1.0441691    
   16.270000      -13.135114      -14.555396       1.4527560      0.21875590E-07  0.23392471      -1.0482911    
   16.260000      -13.010266      -14.424787       1.4452739      0.28557686E-07  0.23568151      -1.0524043    
   16.250000      -12.887418      -14.296180       1.4378076      0.37109833E-07  0.23744776      -1.0565131    
   16.240000      -12.766530      -14.169539       1.4303571      0.48005980E-07  0.23922348      -1.0606142    
   16.230000      -12.647564      -14.044826       1.4229223      0.61827070E-07  0.24100869      -1.0647052    
   16.220000      -12.530483      -13.922005       1.4155031      0.79282027E-07  0.24280342      -1.0687864    
   16.210000      -12.415257      -13.801043       1.4080997      0.10123225E-06  0.24460768      -1.0728622    
   16.200000      -12.301849      -13.681906       1.4007118      0.12871991E-06  0.24642149      -1.0769321    
   16.190000      -12.190224      -13.564559       1.3933396      0.16300056E-06  0.24824489      -1.0809921    
   16.180000      -12.080347      -13.448969       1.3859829      0.20558051E-06  0.25007789      -1.0850423    
   16.170000      -11.972190      -13.335104       1.3786417      0.25825976E-06  0.25192050      -1.0890857    
   16.160000      -11.865721      -13.222935       1.3713161      0.32318070E-06  0.25377276      -1.0931245    
   16.150000      -11.760907      -13.112428       1.3640059      0.40288323E-06  0.25563468      -1.0971542    
   16.140000      -11.657715      -13.003554       1.3567112      0.50036681E-06  0.25750628      -1.1011744    
   16.130000      -11.556119      -12.896284       1.3494319      0.61916041E-06  0.25938759      -1.1051865    
   16.120000      -11.456089      -12.790587       1.3421679      0.76340088E-06  0.26127862      -1.1091943    
   16.110000      -11.357597      -12.686437       1.3349194      0.93791996E-06  0.26317939      -1.1131945    
   16.100000      -11.260611      -12.583805       1.3276862      0.11483404E-05  0.26508993      -1.1171852    
   16.090000      -11.165105      -12.482663       1.3204682      0.14011827E-05  0.26701025      -1.1211671    
   16.080000      -11.071055      -12.382985       1.3132656      0.17039831E-05  0.26894037      -1.1251439    
   16.070000      -10.978434      -12.284744       1.3060782      0.20654218E-05  0.27088032      -1.1291145    
   16.060000      -10.887212      -12.187916       1.2989060      0.24954637E-05  0.27283011      -1.1330756    
   16.050000      -10.797364      -12.092473       1.2917490      0.30055097E-05  0.27478976      -1.1370273    
   16.040000      -10.708868      -11.998393       1.2846071      0.36085639E-05  0.27675929      -1.1409724    
   16.030000      -10.621700      -11.905650       1.2774804      0.43194122E-05  0.27873872      -1.1449122    
   16.020000      -10.535834      -11.814221       1.2703688      0.51548136E-05  0.28072807      -1.1488425    
   16.010000      -10.451243      -11.724082       1.2632722      0.61337038E-05  0.28272736      -1.1527628    
   16.000000      -10.367909      -11.635210       1.2561907      0.72774166E-05  0.28473660      -1.1566749    
   15.990000      -10.285809      -11.547583       1.2491242      0.86099176E-05  0.28675582      -1.1605816    
   15.980000      -10.204920      -11.461180       1.2420727      0.10158051E-04  0.28878504      -1.1644793    
   15.970000      -10.125217      -11.375978       1.2350361      0.11951793E-04  0.29082428      -1.1683667    
   15.960000      -10.046682      -11.291956       1.2280143      0.14024533E-04  0.29287355      -1.1722447    
   15.950000      -9.9692940      -11.209094       1.2210075      0.16413355E-04  0.29493287      -1.1761165    
   15.940000      -9.8930330      -11.127371       1.2140155      0.19159341E-04  0.29700226      -1.1799806    
   15.930000      -9.8178759      -11.046768       1.2070383      0.22307870E-04  0.29908175      -1.1838346    
   15.920000      -9.7438035      -10.967263       1.2000759      0.25908941E-04  0.30117135      -1.1876786    
   15.910000      -9.6707990      -10.888840       1.1931283      0.30017506E-04  0.30327107      -1.1915158    
   15.900000      -9.5988434      -10.811478       1.1861953      0.34693809E-04  0.30538094      -1.1953466    
   15.890000      -9.5279161      -10.735160       1.1792770      0.40003726E-04  0.30750098      -1.1991679    
   15.880000      -9.4579973      -10.659867       1.1723734      0.46019101E-04  0.30963120      -1.2029794    
   15.870000      -9.3890726      -10.585581       1.1654844      0.52818121E-04  0.31177161      -1.2067833    
   15.860000      -9.3211245      -10.512285       1.1586099      0.60485669E-04  0.31392225      -1.2105818    
   15.850000      -9.2541347      -10.439963       1.1517501      0.69113677E-04  0.31608312      -1.2143718    
   15.840000      -9.1880840      -10.368597       1.1449047      0.78801470E-04  0.31825424      -1.2181525    
   15.830000      -9.1229584      -10.298171       1.1380739      0.89656119E-04  0.32043563      -1.2219249    
   15.820000      -9.0587424      -10.228669       1.1312575      0.10179282E-03  0.32262730      -1.2256922    
   15.810000      -8.9954201      -10.160075       1.1244556      0.11533520E-03  0.32482927      -1.2294524    
   15.800000      -8.9329730      -10.092374       1.1176680      0.13041567E-03  0.32704156      -1.2332038    
   15.790000      -8.8713870      -10.025550       1.1108949      0.14717568E-03  0.32926418      -1.2369468    
   15.780000      -8.8106489      -9.9595889       1.1041361      0.16576611E-03  0.33149714      -1.2406844    
   15.770000      -8.7507441      -9.8944762       1.0973916      0.18634754E-03  0.33374047      -1.2444165    
   15.760000      -8.6916561      -9.8301972       1.0906615      0.20909048E-03  0.33599417      -1.2481406    
   15.750000      -8.6333697      -9.7667379       1.0839456      0.23417560E-03  0.33825826      -1.2518566    
   15.740000      -8.5758743      -9.7040845       1.0772440      0.26179401E-03  0.34053275      -1.2555668    
   15.730000      -8.5191561      -9.6422237       1.0705566      0.29214748E-03  0.34281766      -1.2592729    
   15.720000      -8.4632005      -9.5811423       1.0638834      0.32544855E-03  0.34511300      -1.2629719    
   15.710000      -8.4079924      -9.5208270       1.0572244      0.36192067E-03  0.34741878      -1.2666635    
   15.700000      -8.3535218      -9.4612651       1.0505795      0.40179834E-03  0.34973501      -1.2703489    
   15.690000      -8.2997763      -9.4024443       1.0439488      0.44532724E-03  0.35206170      -1.2740306    
   15.680000      -8.2467433      -9.3443524       1.0373322      0.49276425E-03  0.35439888      -1.2777065    
   15.670000      -8.1944080      -9.2869771       1.0307297      0.54437739E-03  0.35674654      -1.2813753    
   15.660000      -8.1427599      -9.2303064       1.0241413      0.60044582E-03  0.35910470      -1.2850372    
   15.650000      -8.0917889      -9.1743291       1.0175669      0.66125987E-03  0.36147337      -1.2886950    
   15.640000      -8.0414833      -9.1190337       1.0110065      0.72712094E-03  0.36385256      -1.2923479    
   15.630000      -7.9918296      -9.0644089       1.0044602      0.79834127E-03  0.36624229      -1.2959934    
   15.620000      -7.9428164      -9.0104436      0.99792779      0.87524373E-03  0.36864256      -1.2996314    
   15.610000      -7.8944352      -8.9571270      0.99140936      0.95816173E-03  0.37105337      -1.3032639    
   15.600000      -7.8466755      -8.9044489      0.98490486      0.10474390E-02  0.37347476      -1.3068916    
   15.590000      -7.7995251      -8.8523986      0.97841426      0.11434293E-02  0.37590672      -1.3105115    
   15.580000      -7.7529720      -8.8009657      0.97193754      0.12464958E-02  0.37834926      -1.3141232    
   15.570000      -7.7070088      -8.7501403      0.96547467      0.13570109E-02  0.38080240      -1.3177277    
   15.560000      -7.6616256      -8.6999127      0.95902563      0.14753562E-02  0.38326615      -1.3213267    
   15.550000      -7.6168122      -8.6502730      0.95259037      0.16019216E-02  0.38574052      -1.3249177    
   15.540000      -7.5725565      -8.6012117      0.94616888      0.17371047E-02  0.38822552      -1.3284996    
   15.530000      -7.5288509      -8.5527193      0.93976112      0.18813106E-02  0.39072116      -1.3320727    
   15.520000      -7.4856870      -8.5047868      0.93336707      0.20349517E-02  0.39322746      -1.3356392    
   15.510000      -7.4430557      -8.4574053      0.92698668      0.21984463E-02  0.39574442      -1.3391978    
   15.500000      -7.4009457      -8.4105656      0.92061992      0.23722188E-02  0.39827207      -1.3427466    
   15.490000      -7.3593485      -8.3642591      0.91426677      0.25566982E-02  0.40081040      -1.3462854    
   15.480000      -7.3182575      -8.3184772      0.90792719      0.27523182E-02  0.40335944      -1.3498163    
   15.470000      -7.2776643      -8.2732116      0.90160114      0.29595165E-02  0.40591920      -1.3533395    
   15.460000      -7.2375589      -8.2284541      0.89528859      0.31787337E-02  0.40848970      -1.3568526    
   15.450000      -7.1979319      -8.1841963      0.88898950      0.34104125E-02  0.41107093      -1.3603552    
   15.440000      -7.1587779      -8.1404304      0.88270385      0.36549973E-02  0.41366292      -1.3638486    
   15.430000      -7.1200891      -8.0971486      0.87643158      0.39129337E-02  0.41626568      -1.3673345    
   15.420000      -7.0818571      -8.0543433      0.87017266      0.41846671E-02  0.41887922      -1.3708104    
   15.410000      -7.0440721      -8.0120068      0.86392707      0.44706423E-02  0.42150355      -1.3742758    
   15.400000      -7.0067288      -7.9701316      0.85769476      0.47713022E-02  0.42413870      -1.3777313    
   15.390000      -6.9698206      -7.9287107      0.85147570      0.50870880E-02  0.42678466      -1.3811791    
   15.380000      -6.9333401      -7.8877368      0.84526984      0.54184378E-02  0.42944146      -1.3846179    
   15.370000      -6.8972782      -7.8472029      0.83907716      0.57657857E-02  0.43210911      -1.3880465    
   15.360000      -6.8616287      -7.8071020      0.83289763      0.61295608E-02  0.43478761      -1.3914650    
   15.350000      -6.8263864      -7.7674275      0.82673120      0.65101870E-02  0.43747698      -1.3948756    
   15.340000      -6.7915447      -7.7281728      0.82057784      0.69080824E-02  0.44017723      -1.3982786    
   15.330000      -6.7570955      -7.6893313      0.81443752      0.73236578E-02  0.44288837      -1.4016718    
   15.320000      -6.7230315      -7.6508965      0.80831020      0.77573157E-02  0.44561042      -1.4050556    
   15.310000      -6.6893490      -7.6128621      0.80219586      0.82094506E-02  0.44834338      -1.4084314    
   15.300000      -6.6560418      -7.5752222      0.79609447      0.86804478E-02  0.45108726      -1.4118007    
   15.290000      -6.6231029      -7.5379706      0.79000597      0.91706827E-02  0.45384208      -1.4151614    
   15.280000      -6.5905246      -7.5011013      0.78393036      0.96805195E-02  0.45660784      -1.4185134    
   15.270000      -6.5583034      -7.4646084      0.77786761      0.10210311E-01  0.45938456      -1.4218576    
   15.260000      -6.5264338      -7.4284863      0.77181768      0.10760399E-01  0.46217222      -1.4251961    
