 # log_10[m](msun/h) log_10[dn](h**3/Mpc**3/dlog10m)  log_10[n>M](h**3/Mpc**3) ln[1/sigma(m,z)] f(per unit ln(1/sigma)  sigma(m,z) n_eff(approx)
   17.000000      -35.843883      -37.843883       2.0437833      0.19692667E-29  0.12953770     -0.72332851    
   16.990000      -35.304225      -37.194097       2.0350552      0.66810987E-29  0.13067327     -0.72797114    
   16.980000      -34.774931      -36.634762       2.0263450      0.22133153E-28  0.13181643     -0.73267635    
   16.970000      -34.255790      -36.104158       2.0176529      0.71630404E-28  0.13296719     -0.73742344    
   16.960000      -33.746590      -35.588539       2.0089790      0.22657576E-27  0.13412554     -0.74219754    
   16.950000      -33.247133      -35.084087       2.0003236      0.70079655E-27  0.13529150     -0.74699081    
   16.940000      -32.757220      -34.589572       1.9916866      0.21204766E-26  0.13646507     -0.75180452    
   16.930000      -32.276653      -34.104488       1.9830681      0.62796595E-26  0.13764628     -0.75662786    
   16.920000      -31.805229      -33.628547       1.9744681      0.18209328E-25  0.13883514     -0.76144719    
   16.910000      -31.342758      -33.161527       1.9658865      0.51724511E-25  0.14003169     -0.76625760    
   16.900000      -30.889058      -32.703236       1.9573235      0.14398969E-24  0.14123594     -0.77106285    
   16.890000      -30.443944      -32.253490       1.9487788      0.39299226E-24  0.14244792     -0.77586212    
   16.880000      -30.007229      -31.812103       1.9402525      0.10520470E-23  0.14366766     -0.78064327    
   16.870000      -29.578733      -31.378898       1.9317446      0.27635060E-23  0.14489520     -0.78540378    
   16.860000      -29.158292      -30.953706       1.9232549      0.71257804E-23  0.14613055     -0.79014717    
   16.850000      -28.745735      -30.536359       1.9147834      0.18043521E-22  0.14737376     -0.79487933    
   16.840000      -28.340894      -30.126691       1.9063299      0.44884167E-22  0.14862485     -0.79959134    
   16.830000      -27.943603      -29.724540       1.8978945      0.10972589E-21  0.14988386     -0.80428046    
   16.820000      -27.553709      -29.329748       1.8894771      0.26370982E-21  0.15115082     -0.80894894    
   16.810000      -27.171060      -28.942166       1.8810776      0.62330377E-21  0.15242576     -0.81360537    
   16.800000      -26.795504      -28.561643       1.8726959      0.14493757E-20  0.15370871     -0.81824567    
   16.790000      -26.426887      -28.188029       1.8643320      0.33167836E-20  0.15499972     -0.82286499    
   16.780000      -26.065070      -27.821183       1.8559858      0.74722440E-20  0.15629879     -0.82746438    
   16.770000      -25.709915      -27.460965       1.8476572      0.16577673E-19  0.15760598     -0.83205181    
   16.760000      -25.361286      -27.107242       1.8393462      0.36230355E-19  0.15892130     -0.83662837    
   16.750000      -25.019043      -26.759877       1.8310527      0.78024774E-19  0.16024480     -0.84118669    
   16.740000      -24.683054      -26.418739       1.8227766      0.16562791E-18  0.16157649     -0.84572685    
   16.730000      -24.353197      -26.083703       1.8145180      0.34665987E-18  0.16291642     -0.85025405    
   16.720000      -24.029347      -25.754645       1.8062767      0.71559695E-18  0.16426460     -0.85477332    
   16.710000      -23.711379      -25.431444       1.7980528      0.14573071E-17  0.16562108     -0.85927707    
   16.700000      -23.399169      -25.113977       1.7898460      0.29286701E-17  0.16698588     -0.86376396    
   16.690000      -23.092606      -24.802130       1.7816565      0.58095582E-17  0.16835903     -0.86823670    
   16.680000      -22.791576      -24.495791       1.7734842      0.11378470E-16  0.16974055     -0.87270246    
   16.670000      -22.495967      -24.194849       1.7653289      0.22009238E-16  0.17113049     -0.87715649    
   16.660000      -22.205665      -23.899193       1.7571907      0.42054807E-16  0.17252887     -0.88159538    
   16.650000      -21.920565      -23.608718       1.7490695      0.79400261E-16  0.17393571     -0.88602027    
   16.640000      -21.640567      -23.323321       1.7409653      0.14815920E-15  0.17535105     -0.89043833    
   16.630000      -21.365568      -23.042901       1.7328780      0.27329918E-15  0.17677491     -0.89484914    
   16.620000      -21.095464      -22.767358       1.7248077      0.49848373E-15  0.17820732     -0.89924699    
   16.610000      -20.830157      -22.496593       1.7167541      0.89921513E-15  0.17964832     -0.90363232    
   16.600000      -20.569557      -22.230514       1.7087175      0.16046181E-14  0.18109791     -0.90801048    
   16.590000      -20.313570      -21.969030       1.7006975      0.28331465E-14  0.18255614     -0.91238502    
   16.580000      -20.062102      -21.712047       1.6926944      0.49504792E-14  0.18402302     -0.91674940    
   16.570000      -19.815060      -21.459477       1.6847080      0.85623933E-14  0.18549859     -0.92110306    
   16.560000      -19.572364      -21.211233       1.6767383      0.14662228E-13  0.18698287     -0.92544895    
   16.550000      -19.333927      -20.967231       1.6687852      0.24862656E-13  0.18847588     -0.92979280    
   16.540000      -19.099665      -20.727390       1.6608488      0.41756279E-13  0.18997765     -0.93412944    
   16.530000      -18.869492      -20.491625       1.6529291      0.69471146E-13  0.19148821     -0.93845632    
   16.520000      -18.643331      -20.259857       1.6450259      0.11451840E-12  0.19300757     -0.94277444    
   16.510000      -18.421105      -20.032010       1.6371393      0.18707377E-12  0.19453576     -0.94708972    
   16.500000      -18.202738      -19.808008       1.6292692      0.30289665E-12  0.19607281     -0.95140011    
   16.490000      -17.988150      -19.587775       1.6214157      0.48617792E-12  0.19761874     -0.95570076    
   16.480000      -17.777268      -19.371237       1.6135786      0.77372805E-12  0.19917357     -0.95999161    
   16.470000      -17.570023      -19.158325       1.6057580      0.12210853E-11  0.20073733     -0.96427726    
   16.460000      -17.366346      -18.948968       1.5979539      0.19113450E-11  0.20231004     -0.96855918    
   16.450000      -17.166163      -18.743097       1.5901661      0.29678158E-11  0.20389174     -0.97283117    
   16.440000      -16.969405      -18.540644       1.5823948      0.45720074E-11  0.20548243     -0.97709249    
   16.430000      -16.776011      -18.341544       1.5746397      0.69890034E-11  0.20708214     -0.98134577    
   16.420000      -16.585915      -18.145734       1.5669010      0.10602961E-10  0.20869091     -0.98559506    
   16.410000      -16.399052      -17.953149       1.5591786      0.15966380E-10  0.21030875     -0.98983499    
   16.400000      -16.215356      -17.763728       1.5514724      0.23867961E-10  0.21193569     -0.99406368    
   16.390000      -16.034771      -17.577409       1.5437825      0.35425375E-10  0.21357175     -0.99828230    
   16.380000      -15.857237      -17.394135       1.5361087      0.52211222E-10  0.21521695      -1.0024960    
   16.370000      -15.682695      -17.213847       1.5284511      0.76422674E-10  0.21687133      -1.0067022    
   16.360000      -15.511086      -17.036488       1.5208095      0.11110839E-09  0.21853490      -1.0108974    
   16.350000      -15.342352      -16.862002       1.5131841      0.16046986E-09  0.22020770      -1.0150820    
   16.340000      -15.176444      -16.690336       1.5055747      0.23025928E-09  0.22188973      -1.0192606    
   16.330000      -15.013306      -16.521435       1.4979814      0.32830073E-09  0.22358103      -1.0234340    
   16.320000      -14.852884      -16.355249       1.4904040      0.46516854E-09  0.22528162      -1.0275972    
   16.310000      -14.695124      -16.191724       1.4828426      0.65506429E-09  0.22699152      -1.0317500    
   16.300000      -14.539980      -16.030811       1.4752971      0.91694456E-09  0.22871076      -1.0358955    
   16.290000      -14.387403      -15.872462       1.4677676      0.12759612E-08  0.23043935      -1.0400369    
   16.280000      -14.237343      -15.716629       1.4602538      0.17652887E-08  0.23217733      -1.0441691    
   16.270000      -14.089749      -15.563264       1.4527560      0.24284276E-08  0.23392471      -1.0482911    
   16.260000      -13.944577      -15.412320       1.4452739      0.33220955E-08  0.23568151      -1.0524043    
   16.250000      -13.801784      -15.263753       1.4378076      0.45198322E-08  0.23744776      -1.0565131    
   16.240000      -13.661325      -15.117520       1.4303571      0.61164661E-08  0.23922348      -1.0606142    
   16.230000      -13.523152      -14.973576       1.4229223      0.82336154E-08  0.24100869      -1.0647052    
   16.220000      -13.387223      -14.831878       1.4155031      0.11026431E-07  0.24280342      -1.0687864    
   16.210000      -13.253500      -14.692385       1.4080997      0.14691826E-07  0.24460768      -1.0728622    
   16.200000      -13.121940      -14.555058       1.4007118      0.19478448E-07  0.24642149      -1.0769321    
   16.190000      -12.992502      -14.419855       1.3933396      0.25698690E-07  0.24824489      -1.0809921    
   16.180000      -12.865144      -14.286737       1.3859829      0.33743100E-07  0.25007789      -1.0850423    
   16.170000      -12.739832      -14.155666       1.3786417      0.44097608E-07  0.25192050      -1.0890857    
   16.160000      -12.616527      -14.026605       1.3713161      0.57363966E-07  0.25377276      -1.0931245    
   16.150000      -12.495192      -13.899517       1.3640059      0.74283891E-07  0.25563468      -1.0971542    
   16.140000      -12.375786      -13.774365       1.3567112      0.95767404E-07  0.25750628      -1.1011744    
   16.130000      -12.258278      -13.651114       1.3494319      0.12292606E-06  0.25938759      -1.1051865    
   16.120000      -12.142633      -13.529730       1.3421679      0.15711168E-06  0.26127862      -1.1091943    
   16.110000      -12.028817      -13.410180       1.3349194      0.19996114E-06  0.26317939      -1.1131945    
   16.100000      -11.916793      -13.292428       1.3276862      0.25344800E-06  0.26508993      -1.1171852    
   16.090000      -11.806529      -13.176443       1.3204682      0.31994186E-06  0.26701025      -1.1211671    
   16.080000      -11.697996      -13.062194       1.3132656      0.40227636E-06  0.26894037      -1.1251439    
   16.070000      -11.591161      -12.949648       1.3060782      0.50382644E-06  0.27088032      -1.1291145    
   16.060000      -11.485991      -12.838775       1.2989060      0.62859568E-06  0.27283011      -1.1330756    
   16.050000      -11.382456      -12.729544       1.2917490      0.78131483E-06  0.27478976      -1.1370273    
   16.040000      -11.280528      -12.621927       1.2846071      0.96755309E-06  0.27675929      -1.1409724    
   16.030000      -11.180178      -12.515895       1.2774804      0.11938422E-05  0.27873872      -1.1449122    
   16.020000      -11.081375      -12.411418       1.2703688      0.14678143E-05  0.28072807      -1.1488425    
   16.010000      -10.984090      -12.308469       1.2632722      0.17983547E-05  0.28272736      -1.1527628    
   16.000000      -10.888299      -12.207021       1.2561907      0.21957716E-05  0.28473660      -1.1566749    
   15.990000      -10.793975      -12.107048       1.2491242      0.26719825E-05  0.28675582      -1.1605816    
   15.980000      -10.701089      -12.008522       1.2420727      0.32407183E-05  0.28878504      -1.1644793    
   15.970000      -10.609614      -11.911418       1.2350361      0.39177441E-05  0.29082428      -1.1683667    
   15.960000      -10.519527      -11.815711       1.2280143      0.47211016E-05  0.29287355      -1.1722447    
   15.950000      -10.430803      -11.721377       1.2210075      0.56713722E-05  0.29493287      -1.1761165    
   15.940000      -10.343419      -11.628390       1.2140155      0.67919588E-05  0.29700226      -1.1799806    
   15.930000      -10.257346      -11.536728       1.2070383      0.81093869E-05  0.29908175      -1.1838346    
   15.920000      -10.172563      -11.446366       1.2000759      0.96536271E-05  0.30117135      -1.1876786    
   15.910000      -10.089048      -11.357282       1.1931283      0.11458444E-04  0.30327107      -1.1915158    
   15.900000      -10.006779      -11.269454       1.1861953      0.13561761E-04  0.30538094      -1.1953466    
   15.890000      -9.9257325      -11.182860       1.1792770      0.16006046E-04  0.30750098      -1.1991679    
   15.880000      -9.8458842      -11.097477       1.1723734      0.18838713E-04  0.30963120      -1.2029794    
   15.870000      -9.7672166      -11.013285       1.1654844      0.22112556E-04  0.31177161      -1.2067833    
   15.860000      -9.6897088      -10.930264       1.1586099      0.25886191E-04  0.31392225      -1.2105818    
   15.850000      -9.6133393      -10.848393       1.1517501      0.30224522E-04  0.31608312      -1.2143718    
   15.840000      -9.5380854      -10.767652       1.1449047      0.35199205E-04  0.31825424      -1.2181525    
   15.830000      -9.4639302      -10.688021       1.1380739      0.40889150E-04  0.32043563      -1.2219249    
   15.820000      -9.3908550      -10.609481       1.1312575      0.47381034E-04  0.32262730      -1.2256922    
   15.810000      -9.3188408      -10.532014       1.1244556      0.54769809E-04  0.32482927      -1.2294524    
   15.800000      -9.2478660      -10.455602       1.1176680      0.63159222E-04  0.32704156      -1.2332038    
   15.790000      -9.1779137      -10.380225       1.1108949      0.72662333E-04  0.32926418      -1.2369468    
   15.780000      -9.1089678      -10.305866       1.1041361      0.83402080E-04  0.33149714      -1.2406844    
   15.770000      -9.0410108      -10.232508       1.0973916      0.95511794E-04  0.33374047      -1.2444165    
   15.760000      -8.9740234      -10.160135       1.0906615      0.10913573E-03  0.33599417      -1.2481406    
   15.750000      -8.9079878      -10.088728       1.0839456      0.12442956E-03  0.33825826      -1.2518566    
   15.740000      -8.8428906      -10.018272       1.0772440      0.14156093E-03  0.34053275      -1.2555668    
   15.730000      -8.7787154      -9.9487510       1.0705566      0.16070996E-03  0.34281766      -1.2592729    
   15.720000      -8.7154452      -9.8801489       1.0638834      0.18206971E-03  0.34511300      -1.2629719    
   15.710000      -8.6530621      -9.8124499       1.0572244      0.20584662E-03  0.34741878      -1.2666635    
   15.700000      -8.5915537      -9.7456391       1.0505795      0.23226098E-03  0.34973501      -1.2703489    
   15.690000      -8.5309052      -9.6797016       1.0439488      0.26154734E-03  0.35206170      -1.2740306    
   15.680000      -8.4711017      -9.6146229       1.0373322      0.29395493E-03  0.35439888      -1.2777065    
   15.670000      -8.4121260      -9.5503884       1.0307297      0.32974794E-03  0.35674654      -1.2813753    
   15.660000      -8.3539653      -9.4869840       1.0241413      0.36920578E-03  0.35910470      -1.2850372    
   15.650000      -8.2966071      -9.4243960       1.0175669      0.41262351E-03  0.36147337      -1.2886950    
   15.640000      -8.2400377      -9.3626108       1.0110065      0.46031200E-03  0.36385256      -1.2923479    
   15.630000      -8.1842412      -9.3016151       1.0044602      0.51259805E-03  0.36624229      -1.2959934    
   15.620000      -8.1292043      -9.2413956      0.99792779      0.56982447E-03  0.36864256      -1.2996314    
   15.610000      -8.0749163      -9.1819395      0.99140936      0.63235032E-03  0.37105337      -1.3032639    
   15.600000      -8.0213646      -9.1232344      0.98490486      0.70055086E-03  0.37347476      -1.3068916    
   15.590000      -7.9685350      -9.0652677      0.97841426      0.77481754E-03  0.37590672      -1.3105115    
   15.580000      -7.9164135      -9.0080272      0.97193754      0.85555771E-03  0.37834926      -1.3141232    
   15.570000      -7.8649908      -8.9515008      0.96547467      0.94319467E-03  0.38080240      -1.3177277    
   15.560000      -7.8142551      -8.8956770      0.95902563      0.10381675E-02  0.38326615      -1.3213267    
   15.550000      -7.7641942      -8.8405443      0.95259037      0.11409307E-02  0.38574052      -1.3249177    
   15.540000      -7.7147942      -8.7860911      0.94616888      0.12519537E-02  0.38822552      -1.3284996    
   15.530000      -7.6660458      -8.7323063      0.93976112      0.13717205E-02  0.39072116      -1.3320727    
   15.520000      -7.6179387      -8.6791790      0.93336707      0.15007295E-02  0.39322746      -1.3356392    
   15.510000      -7.5704620      -8.6266987      0.92698668      0.16394929E-02  0.39574442      -1.3391978    
   15.500000      -7.5236028      -8.5748545      0.92061992      0.17885357E-02  0.39827207      -1.3427466    
   15.490000      -7.4773509      -8.5236359      0.91426677      0.19483951E-02  0.40081040      -1.3462854    
   15.480000      -7.4316981      -8.4730331      0.90792719      0.21196205E-02  0.40335944      -1.3498163    
   15.470000      -7.3866341      -8.4230360      0.90160114      0.23027721E-02  0.40591920      -1.3533395    
   15.460000      -7.3421476      -8.3736347      0.89528859      0.24984202E-02  0.40848970      -1.3568526    
   15.450000      -7.2982274      -8.3248195      0.88898950      0.27071441E-02  0.41107093      -1.3603552    
   15.440000      -7.2548668      -8.2765809      0.88270385      0.29295314E-02  0.41366292      -1.3638486    
   15.430000      -7.2120563      -8.2289098      0.87643158      0.31661776E-02  0.41626568      -1.3673345    
   15.420000      -7.1697861      -8.1817970      0.87017266      0.34176841E-02  0.41887922      -1.3708104    
   15.410000      -7.1280449      -8.1352334      0.86392707      0.36846575E-02  0.42150355      -1.3742758    
   15.400000      -7.0868260      -8.0892102      0.85769476      0.39677083E-02  0.42413870      -1.3777313    
   15.390000      -7.0461213      -8.0437188      0.85147570      0.42674506E-02  0.42678466      -1.3811791    
   15.380000      -7.0059222      -7.9987509      0.84526984      0.45845003E-02  0.42944146      -1.3846179    
   15.370000      -6.9662181      -7.9542979      0.83907716      0.49194735E-02  0.43210911      -1.3880465    
   15.360000      -6.9270014      -7.9103516      0.83289763      0.52729857E-02  0.43478761      -1.3914650    
   15.350000      -6.8882658      -7.8669041      0.82673120      0.56456508E-02  0.43747698      -1.3948756    
   15.340000      -6.8500034      -7.8239475      0.82057784      0.60380799E-02  0.44017723      -1.3982786    
   15.330000      -6.8122046      -7.7814740      0.81443752      0.64508798E-02  0.44288837      -1.4016718    
   15.320000      -6.7748611      -7.7394760      0.80831020      0.68846507E-02  0.44561042      -1.4050556    
   15.310000      -6.7379678      -7.6979460      0.80219586      0.73399867E-02  0.44834338      -1.4084314    
   15.300000      -6.7015175      -7.6568768      0.79609447      0.78174740E-02  0.45108726      -1.4118007    
   15.290000      -6.6655018      -7.6162611      0.79000597      0.83176894E-02  0.45384208      -1.4151614    
   15.280000      -6.6299121      -7.5760919      0.78393036      0.88411981E-02  0.45660784      -1.4185134    
   15.270000      -6.5947436      -7.5363621      0.77786761      0.93885540E-02  0.45938456      -1.4218576    
   15.260000      -6.5599898      -7.4970651      0.77181768      0.99602982E-02  0.46217222      -1.4251961    
