 # log_10[m](msun/h) log_10[dn](h**3/Mpc**3/dlog10m)  log_10[n>M](h**3/Mpc**3) ln[1/sigma(m,z)] f(per unit ln(1/sigma)  sigma(m,z) n_eff(approx)
   17.000000      -29.417610      -31.417610       1.9260003      0.52550484E-23  0.14572991     -0.72332851    
   16.990000      -28.990571      -30.852560       1.9172721      0.13756320E-22  0.14700743     -0.72797114    
   16.980000      -28.571720      -30.388794       1.9085619      0.35339027E-22  0.14829349     -0.73267635    
   16.970000      -28.160890      -29.959031       1.8998698      0.89124480E-22  0.14958809     -0.73742344    
   16.960000      -27.757913      -29.545903       1.8911960      0.22074462E-21  0.15089123     -0.74219754    
   16.950000      -27.362632      -29.143641       1.8825406      0.53714606E-21  0.15220293     -0.74699081    
   16.940000      -26.974891      -28.750091       1.8739036      0.12845834E-20  0.15352320     -0.75180452    
   16.930000      -26.594533      -28.364354       1.8652851      0.30203435E-20  0.15485206     -0.75662786    
   16.920000      -26.221395      -27.985988       1.8566850      0.69843807E-20  0.15618954     -0.76144719    
   16.910000      -25.855328      -27.614733       1.8481035      0.15890101E-19  0.15753565     -0.76625760    
   16.900000      -25.496189      -27.250399       1.8395404      0.35579602E-19  0.15889043     -0.77106285    
   16.890000      -25.143830      -26.892824       1.8309958      0.78432736E-19  0.16025391     -0.77586212    
   16.880000      -24.798105      -26.541857       1.8224695      0.17027798E-18  0.16162612     -0.78064327    
   16.870000      -24.458870      -26.197355       1.8139615      0.36418595E-18  0.16300710     -0.78540378    
   16.860000      -24.125997      -25.859182       1.8054718      0.76758740E-18  0.16439687     -0.79014717    
   16.850000      -23.799349      -25.527206       1.7970003      0.15948022E-17  0.16579548     -0.79487933    
   16.840000      -23.478796      -25.201297       1.7885469      0.32673182E-17  0.16720296     -0.79959134    
   16.830000      -23.164203      -24.881324       1.7801115      0.66025079E-17  0.16861934     -0.80428046    
   16.820000      -22.855452      -24.567165       1.7716941      0.13163866E-16  0.17004467     -0.80894894    
   16.810000      -22.552422      -24.258701       1.7632946      0.25902253E-16  0.17147898     -0.81360537    
   16.800000      -22.254994      -23.955814       1.7549129      0.50314232E-16  0.17292230     -0.81824567    
   16.790000      -21.963045      -23.658384       1.7465490      0.96507185E-16  0.17437468     -0.82286499    
   16.780000      -21.676464      -23.366300       1.7382027      0.18283393E-15  0.17583614     -0.82746438    
   16.770000      -21.395145      -23.079453       1.7298741      0.34221068E-15  0.17730672     -0.83205181    
   16.760000      -21.118980      -22.797737       1.7215631      0.63296387E-15  0.17878646     -0.83662837    
   16.750000      -20.847856      -22.521044       1.7132696      0.11572283E-14  0.18027540     -0.84118669    
   16.740000      -20.581671      -22.249270       1.7049936      0.20917836E-14  0.18177355     -0.84572685    
   16.730000      -20.320327      -21.982317       1.6967350      0.37391527E-14  0.18328097     -0.85025405    
   16.720000      -20.063728      -21.720088       1.6884937      0.66113136E-14  0.18479768     -0.85477332    
   16.710000      -19.811773      -21.462485       1.6802697      0.11565315E-13  0.18632371     -0.85927707    
   16.700000      -19.564363      -21.209414       1.6720630      0.20020571E-13  0.18785911     -0.86376396    
   16.690000      -19.321412      -20.960783       1.6638735      0.34303367E-13  0.18940390     -0.86823670    
   16.680000      -19.082831      -20.716503       1.6557011      0.58187414E-13  0.19095812     -0.87270246    
   16.670000      -18.848530      -20.476489       1.6475459      0.97733195E-13  0.19252180     -0.87715649    
   16.660000      -18.618419      -20.240651       1.6394077      0.16257811E-12  0.19409498     -0.88159538    
   16.650000      -18.392414      -20.008907       1.6312865      0.26790009E-12  0.19567768     -0.88602027    
   16.640000      -18.170439      -19.781176       1.6231823      0.43737832E-12  0.19726993     -0.89043833    
   16.630000      -17.952410      -19.557378       1.6150950      0.70761376E-12  0.19887177     -0.89484914    
   16.620000      -17.738246      -19.337434       1.6070246      0.11346683E-11  0.20048324     -0.89924699    
   16.610000      -17.527869      -19.121266       1.5989711      0.18036481E-11  0.20210436     -0.90363232    
   16.600000      -17.321208      -18.908801       1.5909344      0.28426306E-11  0.20373515     -0.90801048    
   16.590000      -17.118190      -18.699966       1.5829145      0.44427191E-11  0.20537565     -0.91238502    
   16.580000      -16.918739      -18.494690       1.5749114      0.68866733E-11  0.20702590     -0.91674940    
   16.570000      -16.722783      -18.292901       1.5669249      0.10589429E-10  0.20868592     -0.92110306    
   16.560000      -16.530257      -18.094532       1.5589552      0.16154996E-10  0.21035573     -0.92544895    
   16.550000      -16.341094      -17.899515       1.5510022      0.24455709E-10  0.21203537     -0.92979280    
   16.540000      -16.155228      -17.707787       1.5430658      0.36741692E-10  0.21372486     -0.93412944    
   16.530000      -15.972589      -17.519281       1.5351460      0.54790851E-10  0.21542423     -0.93845632    
   16.520000      -15.793116      -17.333934       1.5272428      0.81112901E-10  0.21713351     -0.94277444    
   16.510000      -15.616751      -17.151687       1.5193563      0.11922491E-09  0.21885273     -0.94708972    
   16.500000      -15.443432      -16.972479       1.5114862      0.17402041E-09  0.22058191     -0.95140011    
   16.490000      -15.273096      -16.796250       1.5036326      0.25226031E-09  0.22232108     -0.95570076    
   16.480000      -15.105685      -16.622942       1.4957956      0.36322106E-09  0.22407027     -0.95999161    
   16.470000      -14.941146      -16.452500       1.4879750      0.51954543E-09  0.22582950     -0.96427726    
   16.460000      -14.779423      -16.284870       1.4801709      0.73835030E-09  0.22759880     -0.96855918    
   16.450000      -14.620458      -16.119995       1.4723831      0.10426597E-08  0.22937820     -0.97283117    
   16.440000      -14.464195      -15.957822       1.4646117      0.14632452E-08  0.23116773     -0.97709249    
   16.430000      -14.310588      -15.798301       1.4568567      0.20409783E-08  0.23296741     -0.98134577    
   16.420000      -14.159584      -15.641380       1.4491180      0.28298143E-08  0.23477727     -0.98559506    
   16.410000      -14.011132      -15.487010       1.4413956      0.39005532E-08  0.23659734     -0.98983499    
   16.400000      -13.865180      -15.335141       1.4336894      0.53455485E-08  0.23842765     -0.99406368    
   16.390000      -13.721681      -15.185725       1.4259994      0.72845737E-08  0.24026821     -0.99828230    
   16.380000      -13.580591      -15.038717       1.4183256      0.98720916E-08  0.24211907      -1.0024960    
   16.370000      -13.441864      -14.894070       1.4106680      0.13306192E-07  0.24398025      -1.0067022    
   16.360000      -13.305449      -14.751739       1.4030265      0.17839522E-07  0.24585177      -1.0108974    
   16.350000      -13.171304      -14.611681       1.3954011      0.23792579E-07  0.24773366      -1.0150820    
   16.340000      -13.039389      -14.473852       1.3877917      0.31569827E-07  0.24962595      -1.0192606    
   16.330000      -12.909660      -14.338211       1.3801983      0.41679058E-07  0.25152866      -1.0234340    
   16.320000      -12.782074      -14.204716       1.3726210      0.54754558E-07  0.25344183      -1.0275972    
   16.310000      -12.656588      -14.073326       1.3650596      0.71584649E-07  0.25536547      -1.0317500    
   16.300000      -12.533167      -13.944002       1.3575141      0.93144377E-07  0.25729961      -1.0358955    
   16.290000      -12.411771      -13.816706       1.3499845      0.12063400E-06  0.25924427      -1.0400369    
   16.280000      -12.292361      -13.691401       1.3424708      0.15552407E-06  0.26119950      -1.0441691    
   16.270000      -12.174896      -13.568047       1.3349729      0.19960787E-06  0.26316530      -1.0482911    
   16.260000      -12.059343      -13.446609       1.3274909      0.25506242E-06  0.26514170      -1.0524043    
   16.250000      -11.945667      -13.327051       1.3200246      0.32451905E-06  0.26712873      -1.0565131    
   16.240000      -11.833831      -13.209339       1.3125741      0.41114425E-06  0.26912642      -1.0606142    
   16.230000      -11.723799      -13.093439       1.3051392      0.51873204E-06  0.27113478      -1.0647052    
   16.220000      -11.615538      -12.979315       1.2977201      0.65180912E-06  0.27315385      -1.0687864    
   16.210000      -11.509016      -12.866937       1.2903166      0.81575464E-06  0.27518364      -1.0728622    
   16.200000      -11.404202      -12.756271       1.2829288      0.10169346E-05  0.27722418      -1.0769321    
   16.190000      -11.301060      -12.647287       1.2755565      0.12628529E-05  0.27927550      -1.0809921    
   16.180000      -11.199559      -12.539952       1.2681998      0.15623192E-05  0.28133762      -1.0850423    
   16.170000      -11.099672      -12.434238       1.2608587      0.19256379E-05  0.28341056      -1.0890857    
   16.160000      -11.001369      -12.330114       1.2535330      0.23648161E-05  0.28549435      -1.0931245    
   16.150000      -10.904619      -12.227551       1.2462229      0.28937931E-05  0.28758901      -1.0971542    
   16.140000      -10.809390      -12.126521       1.2389281      0.35286903E-05  0.28969457      -1.1011744    
   16.130000      -10.715658      -12.026995       1.2316488      0.42880882E-05  0.29181104      -1.1051865    
   16.120000      -10.623396      -11.928947       1.2243849      0.51933272E-05  0.29393844      -1.1091943    
   16.110000      -10.532576      -11.832351       1.2171363      0.62688319E-05  0.29607682      -1.1131945    
   16.100000      -10.443169      -11.737178       1.2099031      0.75424600E-05  0.29822617      -1.1171852    
   16.090000      -10.355149      -11.643404       1.2026852      0.90458784E-05  0.30038653      -1.1211671    
   16.080000      -10.268495      -11.551004       1.1954826      0.10814971E-04  0.30255792      -1.1251439    
   16.070000      -10.183180      -11.459952       1.1882951      0.12890268E-04  0.30474036      -1.1291145    
   16.060000      -10.099178      -11.370225       1.1811230      0.15317398E-04  0.30693387      -1.1330756    
   16.050000      -10.016463      -11.281799       1.1739660      0.18147566E-04  0.30913848      -1.1370273    
   16.040000      -9.9350167      -11.194649       1.1668241      0.21438071E-04  0.31135420      -1.1409724    
   16.030000      -9.8548145      -11.108755       1.1596974      0.25252833E-04  0.31358106      -1.1449122    
   16.020000      -9.7758322      -11.024093       1.1525858      0.29662944E-04  0.31581908      -1.1488425    
   16.010000      -9.6980456      -10.940641       1.1454892      0.34747236E-04  0.31806828      -1.1527628    
   16.000000      -9.6214365      -10.858377       1.1384077      0.40592880E-04  0.32032868      -1.1566749    
   15.990000      -9.5459837      -10.777281       1.1313412      0.47296005E-04  0.32260030      -1.1605816    
   15.980000      -9.4716655      -10.697332       1.1242896      0.54962316E-04  0.32488317      -1.1644793    
   15.970000      -9.3984584      -10.618510       1.1172530      0.63707716E-04  0.32717731      -1.1683667    
   15.960000      -9.3263448      -10.540794       1.1102313      0.73658954E-04  0.32948274      -1.1722447    
   15.950000      -9.2553060      -10.464164       1.1032245      0.84954292E-04  0.33179948      -1.1761165    
   15.940000      -9.1853228      -10.388603       1.0962325      0.97744152E-04  0.33412754      -1.1799806    
   15.930000      -9.1163732      -10.314091       1.0892553      0.11219174E-03  0.33646697      -1.1838346    
   15.920000      -9.0484390      -10.240610       1.0822929      0.12847366E-03  0.33881776      -1.1876786    
   15.910000      -8.9815048      -10.168141       1.0753452      0.14678063E-03  0.34117995      -1.1915158    
   15.900000      -8.9155527      -10.096667       1.0684123      0.16731802E-03  0.34355356      -1.1953466    
   15.890000      -8.8505629      -10.026172       1.0614940      0.19030648E-03  0.34593860      -1.1991679    
   15.880000      -8.7865170      -9.9566359       1.0545903      0.21598245E-03  0.34833510      -1.2029794    
   15.870000      -8.7234014      -9.8880442       1.0477013      0.24459871E-03  0.35074307      -1.2067833    
   15.860000      -8.6611997      -9.8203802       1.0408269      0.27642500E-03  0.35316253      -1.2105818    
   15.850000      -8.5998946      -9.7536279       1.0339670      0.31174832E-03  0.35559351      -1.2143718    
   15.840000      -8.5394678      -9.6877712       1.0271217      0.35087342E-03  0.35803602      -1.2181525    
   15.830000      -8.4799064      -9.6227947       1.0202908      0.39412309E-03  0.36049008      -1.2219249    
   15.820000      -8.4211959      -9.5586836       1.0134745      0.44183863E-03  0.36295571      -1.2256922    
   15.810000      -8.3633211      -9.4954231       1.0066725      0.49438005E-03  0.36543293      -1.2294524    
   15.800000      -8.3062645      -9.4329984      0.99988498      0.55212615E-03  0.36792176      -1.2332038    
   15.790000      -8.2500128      -9.3713950      0.99311184      0.61547468E-03  0.37042220      -1.2369468    
   15.780000      -8.1945539      -9.3105993      0.98635305      0.68484255E-03  0.37293429      -1.2406844    
   15.770000      -8.1398739      -9.2505976      0.97960860      0.76066576E-03  0.37545803      -1.2444165    
   15.760000      -8.0859571      -9.1913764      0.97287844      0.84339926E-03  0.37799344      -1.2481406    
   15.750000      -8.0327893      -9.1329221      0.96616256      0.93351665E-03  0.38054054      -1.2518566    
   15.740000      -7.9803605      -9.0752220      0.95946094      0.10315102E-02  0.38309934      -1.2555668    
   15.730000      -7.9286578      -9.0182635      0.95277355      0.11378905E-02  0.38566986      -1.2592729    
   15.720000      -7.8776673      -8.9620342      0.94610036      0.12531860E-02  0.38825212      -1.2629719    
   15.710000      -7.8273748      -8.9065216      0.93944135      0.13779423E-02  0.39084612      -1.2666635    
   15.700000      -7.7777708      -8.8517137      0.93279650      0.15127219E-02  0.39345188      -1.2703489    
   15.690000      -7.7288439      -8.7975990      0.92616579      0.16581035E-02  0.39606941      -1.2740306    
   15.680000      -7.6805820      -8.7441658      0.91954919      0.18146814E-02  0.39869874      -1.2777065    
   15.670000      -7.6329712      -8.6914027      0.91294668      0.19830643E-02  0.40133986      -1.2813753    
   15.660000      -7.5860017      -8.6392985      0.90635825      0.21638746E-02  0.40399279      -1.2850372    
   15.650000      -7.5396638      -8.5878424      0.89978386      0.23577475E-02  0.40665754      -1.2886950    
   15.640000      -7.4939467      -8.5370238      0.89322350      0.25653304E-02  0.40933413      -1.2923479    
   15.630000      -7.4488374      -8.4868319      0.88667713      0.27872811E-02  0.41202258      -1.2959934    
   15.620000      -7.4043253      -8.4372564      0.88014475      0.30242669E-02  0.41472288      -1.2996314    
   15.610000      -7.3604025      -8.3882871      0.87362632      0.32769634E-02  0.41743505      -1.3032639    
   15.600000      -7.3170590      -8.3399143      0.86712183      0.35460537E-02  0.42015910      -1.3068916    
   15.590000      -7.2742832      -8.2921280      0.86063123      0.38322266E-02  0.42289506      -1.3105115    
   15.580000      -7.2320639      -8.2449185      0.85415450      0.41361749E-02  0.42564292      -1.3141232    
   15.570000      -7.1903942      -8.1982763      0.84769164      0.44585945E-02  0.42840270      -1.3177277    
   15.560000      -7.1492647      -8.1521923      0.84124259      0.48001835E-02  0.43117442      -1.3213267    
   15.550000      -7.1086658      -8.1066574      0.83480734      0.51616398E-02  0.43395808      -1.3249177    
   15.540000      -7.0685859      -8.0616624      0.82838584      0.55436599E-02  0.43675371      -1.3284996    
   15.530000      -7.0290180      -8.0171985      0.82197809      0.59469370E-02  0.43956130      -1.3320727    
   15.520000      -6.9899544      -7.9732573      0.81558403      0.63721606E-02  0.44238089      -1.3356392    
   15.510000      -6.9513862      -7.9298302      0.80920364      0.68200144E-02  0.44521247      -1.3391978    
   15.500000      -6.9133029      -7.8869088      0.80283689      0.72911743E-02  0.44805608      -1.3427466    
   15.490000      -6.8756964      -7.8444847      0.79648374      0.77863068E-02  0.45091170      -1.3462854    
   15.480000      -6.8385607      -7.8025501      0.79014416      0.83060685E-02  0.45377938      -1.3498163    
   15.470000      -6.8018876      -7.7610972      0.78381811      0.88511041E-02  0.45665910      -1.3533395    
   15.460000      -6.7656679      -7.7201180      0.77750555      0.94220449E-02  0.45955091      -1.3568526    
   15.450000      -6.7298925      -7.6796049      0.77120647      0.10019506E-01  0.46245480      -1.3603552    
   15.440000      -6.6945565      -7.6395504      0.76492081      0.10644088E-01  0.46537078      -1.3638486    
   15.430000      -6.6596527      -7.5999472      0.75864854      0.11296371E-01  0.46829889      -1.3673345    
   15.420000      -6.6251728      -7.5607882      0.75238963      0.11976921E-01  0.47123912      -1.3708104    
   15.410000      -6.5911078      -7.5220660      0.74614403      0.12686277E-01  0.47419150      -1.3742758    
   15.400000      -6.5574527      -7.4837738      0.73991172      0.13424960E-01  0.47715604      -1.3777313    
   15.390000      -6.5242013      -7.4459047      0.73369266      0.14193468E-01  0.48013274      -1.3811791    
   15.380000      -6.4913467      -7.4084521      0.72748681      0.14992274E-01  0.48312164      -1.3846179    
   15.370000      -6.4588801      -7.3714094      0.72129413      0.15821826E-01  0.48612274      -1.3880465    
   15.360000      -6.4267957      -7.3347699      0.71511459      0.16682545E-01  0.48913606      -1.3914650    
   15.350000      -6.3950888      -7.2985274      0.70894817      0.17574825E-01  0.49216160      -1.3948756    
   15.340000      -6.3637532      -7.2626757      0.70279481      0.18499032E-01  0.49519938      -1.3982786    
   15.330000      -6.3327810      -7.2272087      0.69665448      0.19455504E-01  0.49824942      -1.4016718    
   15.320000      -6.3021656      -7.1921202      0.69052717      0.20444545E-01  0.50131172      -1.4050556    
   15.310000      -6.2719032      -7.1574043      0.68441283      0.21466432E-01  0.50438630      -1.4084314    
   15.300000      -6.2419883      -7.1230555      0.67831143      0.22521411E-01  0.50747317      -1.4118007    
   15.290000      -6.2124142      -7.0890678      0.67222294      0.23609693E-01  0.51057234      -1.4151614    
   15.280000      -6.1831735      -7.0554357      0.66614733      0.24731459E-01  0.51368383      -1.4185134    
   15.270000      -6.1542631      -7.0221537      0.66008457      0.25886855E-01  0.51680762      -1.4218576    
   15.260000      -6.1256777      -6.9892164      0.65403464      0.27075996E-01  0.51994375      -1.4251961    
